Time (s),T_outer (C),T_inner (C),T_avg (C),Input Temperature (C)
0,150.0,150.0,150.0,150.0
150,150.0,153.81,150.32,153.93134250833333
300,150.0,157.52,150.88,157.63306649166668
450,150.0,156.78,151.13,156.910427425
600,150.01,160.79,151.72,160.91954988333333
750,150.04,161.14,152.07,161.33647202916666
900,150.08,166.9,152.92,167.16121249999998
1050,150.15,170.46,153.82,170.72350541666665
1200,150.25,171.76,154.59,171.96193029999998
1350,150.38,169.35,154.97,169.42581371249997
1500,150.55,170.11,155.17,170.4196907333333
1650,150.77,175.14,156.17,175.34236729583333
1800,151.02,175.17,156.7,175.4138155
1950,151.29,175.3,157.26,175.46667175416667
2100,151.59,178.64,157.87,178.999737575
2250,151.92,180.47,158.76,180.679675325
2400,152.27,179.11,159.19,179.30977856666667
2550,152.64,183.45,159.93,183.82333945000002
2700,153.04,181.93,160.6,182.0771229
2850,153.45,188.27,161.46,188.74417171666667
3000,153.89,184.64,162.12,184.75565421666667
3150,154.34,188.53,162.79,188.909431975
3300,154.82,191.92,163.8,192.28383913333334
3450,155.31,194.42,164.79,194.79051877083333
3600,155.83,192.5,165.43,192.7530857
3750,156.36,199.86,166.62,200.28476254583333
3900,156.91,195.36,167.17,195.62437612500003
4050,157.49,196.28,167.76,196.62490422500002
4200,158.08,200.57,168.73,200.97017445
4350,158.7,203.03,169.79,203.3556518875
4500,159.33,201.63,170.43,201.98851267499998
4650,159.97,205.57,171.4,206.03679827916667
4800,160.62,210.25,172.71,210.68176423333333
4950,161.29,208.96,173.64,209.24704208749998
5100,161.98,210.12,174.31,210.6603289
5250,162.69,213.47,175.66,213.76631049166667
5400,163.42,213.48,176.34,213.997638
5550,164.17,216.19,177.57,216.55247955833332
5700,164.94,215.53,178.33,215.926832975
5850,165.73,218.92,179.37,219.412708475
6000,166.53,224.25,180.76,224.81400216666665
6150,167.34,225.89,182.09,226.35749373333334
6300,168.17,225.38,183.09,225.811609525
6450,169.02,224.08,183.9,224.45432837916667
6600,169.89,230.68,185.17,231.3053854
6750,170.78,226.12,186.05,226.4008415375
6900,171.69,227.12,186.79,227.55180325
7050,172.62,236.53,188.37,237.2228456583333
7200,173.55,229.74,189.15,230.0113396
7350,174.49,234.07,190.19,234.59778949166667
7500,175.44,238.42,191.56,238.96056591666667
7650,176.39,239.82,192.8,240.3332101375
7800,177.32,241.24,193.97,241.67911903333334
7950,178.26,239.45,194.75,239.96098394999999
8100,179.21,243.46,196.01,243.9005699
8250,180.18,243.31,196.91,243.88427295000002
8400,181.15,249.2,198.44,249.74279586666668
8550,182.13,248.49,199.58,248.938260325
8700,183.12,250.84,200.64,251.5020019083333
8850,184.12,256.71,202.35,257.28619534166666
9000,185.13,256.6,203.62,257.1345258
9150,186.16,256.31,204.72,256.81904304166665
9300,187.2,258.17,205.86,258.7502880916667
9450,188.26,259.22,207.09,259.729441425
9600,189.34,258.74,208.09,259.2321134
9750,190.43,263.63,209.4,264.299811375
9900,191.54,268.25,211.04,268.897230975
10050,192.64,267.72,212.36,268.241990175
10200,193.76,264.9,213.26,265.34773513333334
10350,194.89,268.98,214.46,269.6100024125
10500,196.03,271.23,215.83,271.8156350833333
10650,197.18,269.32,216.86,269.79521632916664
10800,198.34,271.42,217.99,271.9787012
10950,199.5,273.46,219.23,274.028862825
11100,200.66,274.81,220.44,275.41532316666667
11250,201.83,279.1,221.95,279.6562849875
11400,203.0,277.2,222.98,277.82516126666667
11550,204.17,283.5,224.62,284.1035896625
11700,205.34,281.92,225.82,282.45010835
11850,206.53,283.78,226.96,284.49812898333334
12000,207.66,290.09,228.75,290.66441779999997
12150,208.8,288.19,229.86,288.7729552375
12300,209.95,291.27,231.19,291.9279480083333
12450,211.11,292.12,232.58,292.633166825
12600,212.28,293.73,233.71,294.43700485
12750,213.46,297.19,235.31,297.78143279166665
12900,214.65,296.88,236.51,297.46784883333333
13050,215.85,295.81,237.6,296.3149139375
13200,217.05,297.39,238.69,298.01079453333335
13350,218.27,300.48,240.07,301.10619223333333
13500,219.49,306.09,241.69,306.844917125
13650,220.72,303.35,242.99,303.830428425
13800,221.94,306.92,244.26,307.62134705
13950,223.18,309.57,245.78,310.2247958125
14100,224.41,313.34,247.37,314.05698809166665
14250,225.66,308.37,248.4,308.830951725
14400,226.92,310.95,249.56,311.5735684
