Time (s),T_outer (C),T_inner (C),T_avg (C),Input Temperature (C)
0,404.0,404.0,404.0,404.0
150,404.0,404.72,404.06,404.7266666666667
300,403.88,404.09,404.01,403.9533333333334
450,404.0,407.79,404.33,407.805
600,404.0,404.88,404.22,404.5733333333334
750,404.0,407.57,404.41,407.67499999999995
900,404.0,409.6,404.76,409.61
1050,404.01,407.2,404.69,407.25333333333333
1200,404.01,409.1,404.9,409.14666666666665
1350,404.03,408.88,405.01,408.915
1500,404.04,411.03,405.2,411.18333333333334
1650,404.07,413.04,405.64,413.0766666666667
1800,404.1,413.08,405.79,413.22
1950,404.13,413.86,406.1,413.905
2100,404.17,415.5,406.34,415.6733333333333
2250,404.22,415.61,406.68,415.65
2400,404.28,418.08,406.97,418.29333333333335
2550,404.35,417.2,407.3,417.22833333333335
2700,404.43,418.66,407.52,418.83000000000004
2850,404.52,419.49,407.88,419.59833333333336
3000,404.62,422.49,408.33,422.70000000000005
3150,404.74,418.76,408.47,418.76
3300,404.86,422.28,408.78,422.4866666666667
3450,404.99,419.76,408.95,419.7966666666667
3600,405.14,424.21,409.39,424.44
3750,405.29,426.87,409.97,427.0416666666667
3900,405.45,423.11,410.09,423.2266666666667
4050,405.62,425.38,410.45,425.495
4200,405.8,423.87,410.59,424.0133333333333
4350,405.99,425.95,410.97,426.0733333333333
4500,406.19,426.1,411.22,426.29999999999995
4650,406.39,429.64,411.81,429.8183333333333
4800,406.6,430.06,412.22,430.25333333333333
4950,406.81,431.54,412.7,431.73
5100,407.04,430.77,413.07,430.87333333333333
5250,407.26,429.65,413.22,429.80833333333334
5400,407.5,430.99,413.57,431.16
5550,407.75,431.8,413.94,431.97
5700,408.0,434.84,414.44,435.11333333333334
5850,408.26,436.76,415.08,436.965
6000,408.53,435.26,415.43,435.4
6150,408.8,436.4,415.78,436.62666666666667
6300,409.08,437.81,416.29,438.02
6450,409.37,439.39,416.8,439.62166666666667
6600,409.66,439.61,417.26,439.8066666666667
6750,409.97,440.24,417.7,440.45
6900,410.28,439.27,418.03,439.4266666666666
7050,410.6,439.88,418.38,440.07
7200,410.93,440.68,418.78,440.88
7350,411.26,443.44,419.36,443.69
7500,411.6,444.13,419.89,444.33333333333337
7650,411.95,443.66,420.26,443.935
7800,412.3,448.08,421.03,448.2866666666667
7950,412.65,445.11,421.32,445.34666666666664
8100,413.01,447.96,421.88,448.24
8250,413.38,450.28,422.57,450.55
8400,413.76,450.78,423.15,451.02666666666664
8550,414.14,450.21,423.61,450.42
8700,414.52,449.75,423.97,449.98
8850,414.92,450.99,424.45,451.24833333333333
9000,415.33,452.35,425.01,452.6
9150,415.74,453.16,425.54,453.41
9300,416.16,454.52,426.1,454.8033333333333
9450,416.58,453.96,426.6,454.155
9600,417.01,456.17,427.11,456.50666666666666
9750,417.44,456.31,427.72,456.525
9900,417.88,458.38,428.29,458.71000000000004
10050,418.32,456.15,428.73,456.31166666666667
10200,418.77,457.46,429.15,457.74666666666667
10350,419.23,462.02,429.94,462.39
10500,419.68,461.61,430.59,461.8666666666667
10650,420.15,460.37,431.02,460.5933333333333
10800,420.61,462.03,431.57,462.32
10950,421.08,460.1,431.92,460.3383333333333
11100,421.56,465.67,432.73,466.0233333333333
11250,422.04,467.09,433.51,467.375
11400,422.53,465.74,434.0,466.06
11550,423.02,467.9,434.72,468.12
11700,423.51,464.41,434.96,464.67999999999995
11850,424.01,467.53,435.57,467.865
12000,424.52,470.79,436.38,471.1333333333333
12150,425.03,471.22,437.1,471.485
12300,425.55,470.53,437.58,470.8366666666667
12450,426.07,471.49,438.19,471.7716666666667
12600,426.59,472.7,438.79,473.04
12750,427.12,474.53,439.52,474.85
12900,427.65,474.22,440.12,474.49333333333334
13050,428.19,473.58,440.59,473.84499999999997
13200,428.73,474.63,441.14,474.94666666666666
13350,429.28,475.79,441.77,476.09
13500,429.84,477.32,442.43,477.65
13650,430.39,477.63,443.06,477.91833333333335
13800,430.95,476.6,443.54,476.85333333333335
13950,431.51,476.2,443.97,476.45500000000004
14100,432.07,481.3,444.78,481.7233333333333
14250,432.63,479.82,445.4,480.075
14400,433.2,480.46,445.96,480.76
