Time (s),T_outer (C),T_inner (C),T_avg (C),Input Temperature (C)
0,232.0,232.0,232.0,232.0
150,232.0,267.05,235.56,268.0151000085176
300,232.0,276.59,238.13,277.44939884851334
450,232.01,284.19,240.37,285.07981069434993
600,232.07,289.83,242.48,290.6776739116143
750,232.21,294.41,244.42,295.2592628145925
900,232.46,298.97,246.3,299.84085171757073
1050,232.82,303.12,248.16,303.9762275983888
1200,233.31,306.36,249.91,307.2191774348865
1350,233.9,309.6,251.62,310.46212727138413
1500,234.6,312.83,253.32,313.70507710788183
1650,235.38,315.37,254.96,316.23286464617684
1800,236.25,317.9,256.56,318.7606521844719
1950,237.19,320.42,258.16,321.2884397227669
2100,238.18,322.97,259.7,323.8162272610619
2250,239.22,325.21,261.21,326.0565194683422
2400,240.31,327.26,262.7,328.10514812161256
2550,241.43,329.3,264.18,330.15377677488294
2700,242.58,331.34,265.66,332.2024054281534
2850,243.77,333.39,267.15,334.25103408142377
3000,244.97,335.19,268.62,336.05063317673154
3150,246.2,336.93,270.07,337.78797488254867
3300,247.45,338.66,271.52,339.5253165883658
3450,248.72,340.4,272.97,341.26265829418287
3600,250.0,342.14,274.41,343.0
3750,251.3,343.66,275.84,344.5237657508672
3900,252.6,345.19,277.27,346.0475315017344
4050,253.93,346.71,278.69,347.57129725260165
4200,255.26,348.24,280.1,349.09506300346885
4350,256.59,349.73,281.51,350.58735508456886
4500,257.94,351.1,282.91,351.9537524866002
4650,259.29,352.47,284.31,353.3201498886315
4800,260.65,353.83,285.69,354.6865472906628
4950,262.01,355.2,287.08,356.0529446926941
5100,263.38,356.52,288.46,357.37066474168296
5250,264.75,357.77,289.83,358.61536876110824
5400,266.12,359.02,291.19,359.86007278053347
5550,267.49,360.26,292.55,361.1047767999587
5700,268.87,361.51,293.9,362.349480819384
5850,270.24,362.7,295.25,363.5357106832506
6000,271.62,363.85,296.58,364.6829577767449
6150,272.99,365.0,297.91,365.8302048702392
6300,274.37,366.15,299.24,366.97745196373353
6450,275.71,367.33,300.53,368.1246990572278
6600,277.02,368.41,301.77,369.20782866867853
6750,278.32,369.48,303.02,370.27492890961844
6900,279.62,370.55,304.26,371.3420291505583
7050,280.92,371.62,305.49,372.4091293914982
7200,282.22,372.69,306.73,373.47622963243805
7350,283.51,373.69,307.95,374.47603031632747
7500,284.79,374.7,309.17,375.47583100021694
7650,286.08,375.7,310.38,376.47563168410636
7800,287.36,376.7,311.59,377.4754323679958
7950,288.64,377.69,312.8,378.463739144592
8100,289.91,378.64,314.0,379.40607029201556
8250,291.19,379.58,315.19,380.34840143943904
8400,292.45,380.53,316.37,381.29073258686253
8550,293.72,381.47,317.55,382.233063734286
8700,294.98,382.4,318.73,383.1554910612331
8850,296.23,383.3,319.9,384.0480626574655
9000,297.49,384.19,321.06,384.9406342536979
9150,298.73,385.09,322.22,385.8332058499304
9300,299.98,385.98,323.37,386.7257774461628
9450,301.22,386.85,324.51,387.5921969248566
9600,302.45,387.71,325.65,388.44118165852456
9750,303.68,388.56,326.78,389.2901663921926
9900,304.9,389.41,327.91,390.13915112586056
10050,306.12,390.26,329.03,390.9881358595286
10200,307.34,391.09,330.15,391.80627370698653
10350,308.55,391.9,331.25,392.6166998328919
10500,309.76,392.71,332.36,393.4271259587974
10650,310.96,393.53,333.45,394.23755208470277
10800,312.15,394.34,334.54,395.0479782106082
10950,313.34,395.12,335.63,395.8240028205282
11100,314.52,395.9,336.71,396.6000274304483
11250,315.7,396.68,337.78,397.3760520403683
11400,316.88,397.46,338.85,398.1520766502883
11550,318.05,398.23,339.91,398.92191718529375
11700,319.21,398.98,340.96,399.66702142064094
11850,320.37,399.73,342.01,400.4121256559881
12000,321.46,400.5,343.02,401.15722989133536
12150,322.54,401.25,344.01,401.90233412668255
12300,323.62,401.98,345.0,402.63624936382166
12450,324.7,402.7,345.99,403.35338110364876
12600,325.77,403.42,346.97,404.07051284347585
12750,326.84,404.14,347.94,404.78764458330295
12900,327.9,404.86,348.91,405.50477632313005
13050,328.96,405.57,349.88,406.20663717640394
13200,330.01,406.26,350.83,406.8983174386425
13350,331.06,406.96,351.79,407.58999770088104
13500,332.1,407.65,352.74,408.28167796311953
13650,333.14,408.35,353.68,408.9733582253581
13800,334.18,409.02,354.62,409.64641723001887
13950,335.21,409.7,355.56,410.31482092028523
14100,336.23,410.37,356.49,410.9832246105516
14250,337.25,411.04,357.42,411.65162830081795
14400,338.27,411.71,358.34,412.3200319910843
