Time (s),T_outer (C),T_inner (C),T_avg (C),Input Temperature (C)
0,200.5,200.5,200.5,200.5
150,200.5,200.58,200.51,200.58333333333331
300,200.5,200.66,200.52,200.66666666666666
450,200.5,200.75,200.53,200.75
600,200.5,200.83,200.55,200.83333333333334
750,200.5,200.92,200.57,200.925
900,200.5,201.04,200.59,201.05
1050,200.5,201.17,200.62,201.17499999999998
1200,200.51,201.32,200.65,201.33333333333331
1350,200.51,201.49,200.69,201.5
1500,200.51,201.68,200.73,201.7
1650,200.52,201.93,200.79,201.95
1800,200.53,202.18,200.84,202.2
1950,200.54,202.51,200.92,202.53333333333333
2100,200.55,202.84,201.0,202.86666666666667
2250,200.56,203.22,201.09,203.25
2400,200.58,203.63,201.19,203.66666666666666
2550,200.6,204.07,201.3,204.10833333333335
2700,200.62,204.6,201.44,204.65
2850,200.65,205.14,201.58,205.19166666666666
3000,200.68,205.84,201.75,205.9
3150,200.72,206.58,201.93,206.65
3300,200.77,207.42,202.15,207.5
3450,200.82,208.41,202.39,208.5
3600,200.87,209.4,202.66,209.5
3750,200.94,210.68,202.97,210.79166666666666
3900,201.01,211.96,203.31,212.08333333333331
4050,201.1,213.46,203.7,213.6
4200,201.2,215.11,204.13,215.26666666666665
4350,201.31,216.86,204.6,217.03333333333333
4500,201.43,219.0,205.15,219.2
4650,201.57,221.15,205.75,221.36666666666667
4800,201.73,223.75,206.42,224.0
4950,201.91,226.48,207.16,226.75
5100,202.12,229.45,207.98,229.75
5250,202.35,232.79,208.89,233.125
5400,202.6,236.14,209.87,236.5
5550,202.89,240.18,210.97,240.58333333333334
5700,203.21,244.23,212.16,244.66666666666669
5850,203.57,248.7,213.42,249.175
6000,203.96,253.45,214.79,253.96666666666667
6150,204.4,258.33,216.26,258.89166666666665
6300,204.88,263.75,217.87,264.35
6450,205.42,269.17,219.58,269.80833333333334
6600,206.01,274.94,221.39,275.6333333333333
6750,206.65,280.82,223.32,281.55
6900,207.35,286.81,225.34,287.58333333333337
7050,208.12,292.99,227.44,293.7916666666667
7200,208.95,299.16,229.59,300.0
7350,209.85,305.33,231.84,306.2083333333333
7500,210.82,311.5,234.16,312.41666666666663
7650,211.86,317.5,236.55,318.45
7800,212.97,323.39,238.99,324.3666666666667
7950,214.16,329.19,241.48,330.19166666666666
8100,215.42,334.63,243.98,335.65000000000003
8250,216.75,340.09,246.44,341.10833333333335
8400,218.14,345.0,248.91,346.0333333333333
8550,219.61,349.78,251.39,350.825
8700,221.14,354.28,253.88,355.3333333333333
8850,222.73,358.36,256.34,359.4166666666667
9000,224.39,362.43,258.81,363.5
9150,226.1,365.81,261.23,366.875
9300,227.87,369.18,263.64,370.25
9450,229.69,372.19,266.01,373.25
9600,231.56,374.94,268.34,376.0
9750,233.47,377.58,270.65,378.6333333333333
9900,235.42,379.76,272.9,380.79999999999995
10050,237.37,381.96,275.04,382.96666666666664
10200,239.33,383.74,277.12,384.7333333333333
10350,241.3,385.42,279.17,386.4
10500,243.3,386.95,281.18,387.91666666666663
10650,245.31,388.25,283.15,389.2083333333333
10800,247.32,389.55,285.09,390.5
10950,249.35,390.56,286.99,391.5
11100,251.37,391.57,288.86,392.5
11250,253.4,392.44,290.69,393.34999999999997
11400,255.42,393.2,292.48,394.09999999999997
11550,257.44,393.92,294.25,394.80833333333334
11700,259.46,394.47,295.97,395.35
11850,261.47,395.03,297.66,395.89166666666665
12000,263.46,395.48,299.32,396.3333333333333
12150,265.44,395.91,300.95,396.75
12300,267.41,396.31,302.55,397.1333333333333
12450,269.37,396.65,304.12,397.4666666666667
12600,271.3,397.0,305.67,397.8
12750,273.22,397.26,307.18,398.05
12900,275.12,397.52,308.67,398.29999999999995
13050,277.0,397.73,310.14,398.5
13200,278.86,397.91,311.57,398.6666666666667
13350,280.7,398.08,312.99,398.825
13500,282.43,398.23,314.34,398.95000000000005
13650,284.13,398.37,315.66,399.07500000000005
13800,285.81,398.47,316.95,399.1666666666667
13950,287.48,398.57,318.22,399.25
14100,289.12,398.66,319.46,399.33333333333337
14250,290.74,398.75,320.69,399.4166666666667
14400,292.35,398.85,321.89,399.5
