Time (s),T_outer (C),T_inner (C),T_avg (C),Input Temperature (C)
0,295.0,295.0,295.0,295.0
150,295.0,333.96,298.88,334.97571448022563
300,295.0,342.89,301.45,343.7697881282339
450,295.01,349.86,303.66,350.74873029573746
600,295.05,354.93,305.7,355.7597887628968
750,295.16,358.96,307.54,359.78690537988405
900,295.37,362.98,309.32,363.81402199687125
1050,295.69,366.6,311.05,367.42358104058064
1200,296.11,369.38,312.67,370.1980249377343
1350,296.64,372.16,314.25,372.97246883488805
1500,297.25,374.93,315.8,375.7469127320418
1650,297.96,377.06,317.29,377.86836575808456
1800,298.74,379.19,318.74,379.9898187841273
1950,299.58,381.3,320.17,382.1112718101701
2100,300.48,383.42,321.6,384.23272483621287
2250,301.42,385.32,322.95,386.09627866847313
2400,302.4,387.01,324.26,387.7878997048784
2550,303.42,388.7,325.57,389.47952074128364
2700,304.46,390.39,326.87,391.1711417776889
2850,305.52,392.08,328.17,392.86276281409414
3000,306.61,393.55,329.46,394.3342391844793
3150,307.71,394.97,330.73,395.7506793883595
3300,308.83,396.39,332.0,397.16711959223966
3450,309.96,397.8,333.26,398.58355979611986
3600,311.1,399.22,334.52,400.0
3750,312.26,400.45,335.76,401.2298118096088
3900,313.42,401.69,337.0,402.45962361921755
4050,314.59,402.92,338.23,403.6894354288263
4200,315.77,404.15,339.45,404.9192472384351
4350,316.96,405.35,340.67,406.1218123300378
4500,318.14,406.45,341.88,407.21539054961636
4650,319.34,407.55,343.08,408.30896876919496
4800,320.54,408.64,344.28,409.4025469887735
4950,321.73,409.74,345.47,410.49612520835205
5100,322.94,410.79,346.65,411.54789276765456
5250,324.14,411.78,347.83,412.5369443365431
5400,325.34,412.78,349.0,413.5259959054316
5550,326.54,413.77,350.16,414.5150474743201
5700,327.75,414.76,351.32,415.50409904320867
5850,328.95,415.7,352.47,416.44326375881195
6000,330.15,416.61,353.61,417.34917057222515
6150,331.35,417.52,354.74,418.25507738563834
6300,332.55,418.43,355.87,419.16098419905154
6450,333.74,419.34,357.0,420.0668910124647
6600,334.93,420.19,358.12,420.91842087949215
6750,336.12,421.04,359.22,421.7563565099232
6900,337.31,421.88,360.33,422.5942921403542
7050,338.49,422.72,361.42,423.4322277707852
7200,339.67,423.56,362.52,424.2701634012162
7350,340.85,424.34,363.6,425.05132574703737
7500,342.02,425.13,364.68,425.83248809285845
7650,343.19,425.91,365.75,426.61365043867954
7800,344.31,426.72,366.79,427.3948127845007
7950,345.4,427.49,367.81,428.1663253797664
8100,346.5,428.23,368.82,428.89923897281074
8250,347.58,428.97,369.82,429.6321525658551
8400,348.67,429.7,370.82,430.3650661588994
8550,349.75,430.44,371.81,431.09797975194374
8700,350.83,431.16,372.79,431.81425596457103
8850,351.9,431.85,373.77,432.5055761065728
9000,352.97,432.55,374.74,433.19689624857455
9150,354.03,433.24,375.71,433.88821639057636
9300,355.09,433.94,376.67,434.5795365325781
9450,356.15,434.61,377.63,435.24908413353165
9600,357.2,435.27,378.58,435.9041167071197
9750,358.24,435.93,379.53,436.55914928070774
9900,359.29,436.58,380.47,437.2141818542958
10050,360.32,437.24,381.4,437.86921442788383
10200,361.36,437.88,382.33,438.4986612660296
10350,362.38,438.5,383.25,439.1217116703149
10500,363.41,439.13,384.17,439.7447620746001
10650,364.43,439.75,385.08,440.3678124788853
10800,365.44,440.38,385.99,440.9908628831705
10950,366.45,440.98,386.89,441.5854777924324
11100,367.45,441.58,387.79,442.1800927016943
11250,368.45,442.18,388.68,442.7747076109563
11400,369.44,442.77,389.57,443.3693225202182
11550,370.43,443.37,390.45,443.9588423347376
11700,371.41,443.94,391.32,444.5279817702872
11850,372.39,444.51,392.19,445.09712120583686
12000,373.37,445.08,393.06,445.66626064138643
12150,374.33,445.66,393.92,446.235400076936
12300,375.3,446.22,394.77,446.7953488089838
12450,376.25,446.77,395.62,447.34151148577894
12600,377.21,447.32,396.46,447.88767416257406
12750,378.15,447.87,397.3,448.43383683936923
12900,379.09,448.42,398.14,448.97999951616436
13050,380.03,448.96,398.97,449.5136544867592
13200,380.96,449.48,399.79,450.0389709865539
13350,381.89,450.01,400.61,450.5642874863486
13500,382.81,450.54,401.42,451.0896039861433
13650,383.73,451.07,402.23,451.614920485938
13800,384.64,451.58,403.04,452.1250264021794
13950,385.54,452.09,403.83,452.6313296725325
14100,386.44,452.6,404.63,453.1376329428856
14250,387.34,453.11,405.42,453.6439362132387
14400,388.23,453.62,406.2,454.1502394835918
