Time (s),T_outer (C),T_inner (C),T_avg (C),Input Temperature (C)
0,210.0,210.0,210.0,210.0
150,210.0,219.41,210.95,219.6808369691106
300,210.0,222.39,211.7,222.63970550228996
450,210.0,224.81,212.38,225.07773230806413
600,210.02,226.65,213.02,226.90583011651879
750,210.06,228.17,213.62,228.42896342631366
900,210.14,229.69,214.21,229.95209673610853
1050,210.25,231.07,214.8,231.3367129666572
1200,210.4,232.18,215.35,232.44429503871342
1350,210.58,233.28,215.9,233.55187711076962
1500,210.79,234.39,216.45,234.65945918282583
1650,211.04,235.27,216.97,235.53952728586708
1800,211.31,236.15,217.49,236.4195953889083
1950,211.6,237.02,218.01,237.29966349194956
2100,211.91,237.9,218.53,238.1797315949908
2250,212.24,238.69,219.04,238.96670818604548
2400,212.59,239.41,219.55,239.69162376910916
2550,212.95,240.14,220.05,240.4165393521728
2700,213.32,240.86,220.55,241.14145493523645
2850,213.71,241.58,221.05,241.8663705183001
3000,214.1,242.23,221.55,242.50946136242737
3150,214.51,242.85,222.05,243.13209602182053
3300,214.92,243.47,222.54,243.7547306812137
3450,215.34,244.09,223.03,244.37736534060684
3600,215.77,244.71,223.53,245.0
3750,216.2,245.27,224.02,245.55164197763332
3900,216.63,245.82,224.5,246.10328395526665
4050,217.08,246.37,224.99,246.65492593289997
4200,217.52,246.92,225.47,247.2065679105333
4350,217.97,247.46,225.96,247.7476498660739
4500,218.42,247.96,226.44,248.2464917332438
4650,218.88,248.46,226.92,248.74533360041366
4800,219.34,248.96,227.4,249.24417546758352
4950,219.8,249.46,227.87,249.7430173347534
5100,220.26,249.94,228.35,250.2253984467854
5250,220.72,250.4,228.82,250.68308842611054
5400,221.19,250.86,229.29,251.14077840543573
5550,221.65,251.31,229.76,251.5984683847609
5700,222.12,251.77,230.23,252.05615836408606
5850,222.59,252.21,230.7,252.4939405195877
6000,223.05,252.64,231.16,252.91845079254034
6150,223.52,253.06,231.62,253.34296106549297
6300,223.99,253.49,232.08,253.7674713384456
6450,224.46,253.91,232.54,254.19198161139823
6600,224.93,254.32,233.0,254.59453253449917
6750,225.4,254.71,233.46,254.99159362013722
6900,225.86,255.12,233.91,255.38865470577525
7050,226.32,255.52,234.34,255.78571579141328
7200,226.78,255.91,234.77,256.1827768770513
7350,227.23,256.29,235.2,256.5566660792897
7500,227.69,256.66,235.64,256.9305552815281
7650,228.14,257.04,236.07,257.3044444837665
7800,228.59,257.41,236.49,257.6783336860048
7950,229.04,257.78,236.92,258.04824639802814
8100,229.49,258.14,237.35,258.4022531491913
8250,229.94,258.49,237.77,258.75625990035456
8400,230.38,258.85,238.19,259.11026665151775
8550,230.83,259.2,238.61,259.46427340268093
8700,231.27,259.55,239.03,259.81136394134376
8850,231.71,259.89,239.45,260.14808016125613
9000,232.15,260.23,239.86,260.48479638116845
9150,232.59,260.56,240.28,260.82151260108077
9300,233.03,260.9,240.69,261.15822882099314
9450,233.47,261.23,241.1,261.4858210509839
9600,233.9,261.55,241.5,261.8073306210269
9750,234.33,261.88,241.91,262.1288401910699
9900,234.77,262.2,242.31,262.450349761113
10050,235.2,262.52,242.71,262.771859331156
10200,235.62,262.83,243.11,263.08256688547675
10350,236.05,263.14,243.51,263.390573935867
10500,236.48,263.45,243.9,263.6985809862572
10650,236.9,263.76,244.29,264.00658803664743
10800,237.32,264.07,244.68,264.3145950870376
10950,237.75,264.37,245.07,264.61051358504847
11100,238.16,264.66,245.46,264.90643208305926
11250,238.58,264.96,245.85,265.2023505810701
11400,239.0,265.26,246.23,265.49826907908096
11550,239.41,265.55,246.61,265.79200747390723
11700,239.82,265.84,246.99,266.0770254559953
11850,240.23,266.13,247.37,266.36204343808333
12000,240.64,266.41,247.74,266.64706142017144
12150,241.05,266.7,248.11,266.93207940225955
12300,241.45,266.98,248.49,267.2131408640233
12450,241.85,267.26,248.86,267.4882675453006
12600,242.26,267.53,249.22,267.7633942265778
12750,242.65,267.81,249.59,268.03852090785506
12900,243.05,268.09,249.95,268.31364758913236
13050,243.45,268.36,250.31,268.5833588707863
13200,243.84,268.62,250.67,268.84945988602465
13350,244.23,268.89,251.03,269.11556090126305
13500,244.62,269.16,251.39,269.3816619165014
13650,245.01,269.42,251.74,269.6477629317398
13800,245.4,269.69,252.09,269.90724251744433
13950,245.78,269.94,252.44,270.16506674576544
14100,246.16,270.2,252.79,270.4228909740865
14250,246.54,270.46,253.14,270.6807152024076
14400,246.92,270.72,253.48,270.93853943072867
