Time (s),T_outer (C),T_inner (C),T_ave (C),Input Temperature (C)
0,300.0,300.0,300.0,300.0
150,300.0,308.02,300.97,308.3333333333333
300,300.0,316.23,302.39,316.6666666666667
450,300.0,324.45,304.08,325.0
600,300.01,332.69,305.96,333.3333333333333
750,300.03,340.94,308.0,341.6666666666667
900,300.09,349.2,310.15,350.0
1050,300.2,357.46,312.42,358.3333333333333
1200,300.38,365.71,314.81,366.66666666666663
1350,300.63,373.98,317.32,375.0
1500,300.96,382.24,319.93,383.3333333333333
1650,301.39,390.53,322.64,391.66666666666663
1800,301.91,398.8,325.37,400.0
1950,302.53,407.06,328.2,408.3333333333333
2100,303.25,415.33,331.14,416.66666666666663
2250,304.08,423.61,334.16,425.0
2400,305.0,431.88,337.28,433.3333333333333
2550,306.02,440.18,340.42,441.66666666666663
2700,307.14,448.46,343.63,450.0
2850,308.36,456.73,346.93,458.3333333333333
3000,309.67,465.01,350.3,466.66666666666663
3150,311.08,473.29,353.76,475.0
3300,312.58,481.57,357.29,483.3333333333333
3450,314.17,489.86,360.89,491.66666666666663
3600,315.84,498.14,364.54,500.0
3750,317.61,498.4,367.32,500.0
3900,319.46,498.47,369.73,500.0
4050,321.4,498.52,371.96,500.0
4200,323.42,498.57,374.07,500.0
4350,325.52,498.6,376.08,500.0
4500,327.68,498.64,378.03,500.0
4650,329.89,498.66,379.91,500.0
4800,332.13,498.69,381.75,500.0
4950,334.39,498.71,383.53,500.0
5100,336.65,498.74,385.28,500.0
5250,338.91,498.76,387.0,500.0
5400,341.17,498.78,388.68,500.0
5550,343.41,498.8,390.32,500.0
5700,345.64,498.82,391.94,500.0
5850,347.85,498.84,393.54,500.0
6000,350.04,498.85,395.1,500.0
6150,352.2,498.87,396.64,500.0
6300,354.23,498.89,398.17,500.0
6450,356.23,498.91,399.65,500.0
6600,358.21,498.93,401.1,500.0
6750,360.17,498.95,402.52,500.0
6900,362.1,498.96,403.91,500.0
7050,364.02,498.98,405.28,500.0
7200,365.91,499.0,406.62,500.0
7350,367.78,499.01,407.95,500.0
7500,369.63,499.02,409.25,500.0
7650,371.46,499.04,410.54,500.0
7800,373.26,499.05,411.8,500.0
7950,375.04,499.07,413.05,500.0
8100,376.8,499.08,414.28,500.0
8250,378.53,499.09,415.49,500.0
8400,380.24,499.11,416.69,500.0
8550,381.93,499.12,417.86,500.0
8700,383.59,499.13,419.02,500.0
8850,385.23,499.14,420.17,500.0
9000,386.85,499.16,421.29,500.0
9150,388.45,499.17,422.41,500.0
9300,390.02,499.18,423.5,500.0
9450,391.57,499.19,424.58,500.0
9600,393.1,499.2,425.65,500.0
9750,394.61,499.21,426.7,500.0
9900,396.1,499.22,427.73,500.0
10050,397.57,499.24,428.75,500.0
10200,398.97,499.25,429.75,500.0
10350,400.33,499.26,430.73,500.0
10500,401.67,499.27,431.7,500.0
10650,403.01,499.28,432.65,500.0
10800,404.33,499.29,433.59,500.0
10950,405.63,499.3,434.52,500.0
11100,406.92,499.31,435.43,500.0
11250,408.2,499.32,436.32,500.0
11400,409.46,499.33,437.21,500.0
11550,410.71,499.34,438.08,500.0
11700,411.94,499.35,438.94,500.0
11850,413.15,499.36,439.78,500.0
12000,414.35,499.37,440.62,500.0
12150,415.53,499.37,441.44,500.0
12300,416.7,499.38,442.25,500.0
12450,417.85,499.39,443.05,500.0
12600,418.99,499.4,443.84,500.0
12750,420.11,499.41,444.62,500.0
12900,421.21,499.42,445.38,500.0
13050,422.3,499.42,446.14,500.0
13200,423.38,499.43,446.89,500.0
13350,424.44,499.44,447.62,500.0
13500,425.48,499.45,448.35,500.0
13650,426.51,499.46,449.06,500.0
13800,427.53,499.46,449.77,500.0
13950,428.53,499.47,450.46,500.0
14100,429.52,499.48,451.15,500.0
14250,430.49,499.49,451.82,500.0
14400,431.46,499.49,452.49,500.0
