Time (s),T_outer (C),T_inner (C),T_ave (C),Input Temperature (C)
0,100.0,100.0,100.0,100.0
150,100.0,108.01,101.05,108.33333333333331
300,100.0,116.22,102.62,116.66666666666666
450,100.01,124.44,104.46,125.0
600,100.04,132.67,106.53,133.33333333333331
750,100.13,140.91,108.78,141.66666666666666
900,100.29,149.17,111.15,150.0
1050,100.57,157.42,113.66,158.33333333333331
1200,100.95,165.67,116.32,166.66666666666666
1350,101.47,173.93,119.11,175.0
1500,102.12,182.19,122.02,183.33333333333331
1650,102.91,190.47,125.04,191.66666666666663
1800,103.84,198.73,128.09,200.0
1950,104.9,206.99,131.27,208.33333333333331
2100,106.1,215.26,134.57,216.66666666666663
2250,107.43,223.53,137.98,225.0
2400,108.89,231.8,141.49,233.33333333333331
2550,110.47,240.1,145.02,241.66666666666663
2700,112.17,248.37,148.61,250.0
2850,113.99,256.64,152.32,258.3333333333333
3000,115.92,264.91,156.13,266.66666666666663
3150,117.97,273.19,160.03,275.0
3300,120.14,281.51,164.0,283.3333333333333
3450,122.37,289.78,167.93,291.66666666666663
3600,124.71,298.06,171.97,300.0
3750,127.15,306.34,176.1,308.3333333333333
3900,129.69,314.62,180.33,316.66666666666663
4050,132.32,322.9,184.63,325.0
4200,135.02,331.23,188.89,333.3333333333333
4350,137.78,339.51,193.2,341.66666666666663
4500,140.63,347.79,197.6,350.0
4650,143.57,356.08,202.08,358.3333333333333
4800,146.59,364.36,206.63,366.66666666666663
4950,149.68,372.71,211.22,375.0
5100,152.79,380.99,215.73,383.3333333333333
5250,155.97,389.28,220.34,391.66666666666663
5400,159.23,397.56,225.03,400.0
5550,162.56,405.85,229.78,408.3333333333333
5700,165.97,414.14,234.61,416.66666666666663
5850,169.38,422.5,239.34,425.0
6000,172.83,430.79,244.11,433.3333333333333
6150,176.34,439.08,248.96,441.66666666666663
6300,179.93,447.37,253.87,450.0
6450,183.58,455.66,258.85,458.3333333333333
6600,187.26,464.01,263.86,466.66666666666663
6750,190.92,472.3,268.82,475.0
6900,194.65,480.6,273.83,483.3333333333333
7050,198.43,488.89,278.9,491.66666666666663
7200,202.28,497.19,284.03,500.0
7350,206.19,497.46,288.27,500.0
7500,210.17,497.55,292.13,500.0
7650,214.21,497.61,295.78,500.0
7800,218.31,497.67,299.29,500.0
7950,222.45,497.72,302.69,500.0
8100,226.44,497.8,306.0,500.0
8250,230.4,497.85,309.14,500.0
8400,234.34,497.89,312.18,500.0
8550,238.27,497.93,315.15,500.0
8700,242.18,497.97,318.06,500.0
8850,246.05,498.0,320.91,500.0
9000,249.89,498.03,323.71,500.0
9150,253.69,498.07,326.45,500.0
9300,257.45,498.1,329.15,500.0
9450,261.16,498.13,331.81,500.0
9600,264.82,498.16,334.42,500.0
9750,268.43,498.19,336.98,500.0
9900,271.83,498.22,339.52,500.0
10050,275.15,498.26,341.97,500.0
10200,278.44,498.29,344.37,500.0
10350,281.69,498.31,346.72,500.0
10500,284.89,498.34,349.03,500.0
10650,288.06,498.37,351.29,500.0
10800,291.19,498.39,353.53,500.0
10950,294.28,498.42,355.72,500.0
11100,297.33,498.44,357.88,500.0
11250,300.34,498.47,360.01,500.0
11400,303.31,498.49,362.1,500.0
11550,306.24,498.51,364.16,500.0
11700,309.12,498.53,366.19,500.0
11850,311.96,498.56,368.19,500.0
12000,314.76,498.58,370.16,500.0
12150,317.38,498.6,372.1,500.0
12300,319.96,498.63,373.99,500.0
12450,322.51,498.65,375.84,500.0
12600,325.03,498.67,377.66,500.0
12750,327.51,498.69,379.44,500.0
12900,329.98,498.71,381.2,500.0
13050,332.41,498.73,382.92,500.0
13200,334.81,498.75,384.62,500.0
13350,337.18,498.77,386.29,500.0
13500,339.52,498.79,387.94,500.0
13650,341.83,498.8,389.56,500.0
13800,344.1,498.82,391.16,500.0
13950,346.35,498.84,392.74,500.0
14100,348.56,498.86,394.29,500.0
14250,350.75,498.87,395.82,500.0
14400,352.9,498.89,397.32,500.0
