Time (s),T_outer (C),T_inner (C),T_avg (C),Input Temperature (C)
0,102.4561089,102.4561089,102.4561089,102.4561089
150,102.46,102.95,102.54,102.97226265
300,102.46,103.55,102.67,103.5863494
450,102.46,104.26,102.84,104.310737475
600,102.46,105.1,103.06,105.1577952
750,102.46,106.16,103.34,106.23837915
900,102.48,107.42,103.68,107.5158986
1050,102.5,108.89,104.1,109.01592177500001
1200,102.53,110.61,104.6,110.7640169
1350,102.57,112.79,105.22,112.97833025
1500,102.64,115.35,105.96,115.57940245
1650,102.72,118.33,106.85,118.6123916
1800,102.83,121.8,107.9,122.1224558
1950,102.97,126.11,109.18,126.505480025
2100,103.15,131.11,110.68,131.58848035
2250,103.37,136.86,112.45,137.43494420000002
2400,103.65,143.45,114.51,144.108359
2550,103.98,151.44,116.93,152.2143074
2700,104.38,160.47,119.72,161.3918871
2850,104.87,170.61,122.92,171.6849068
3000,105.44,181.93,126.57,183.1371752
3150,106.13,195.0,130.73,196.3841183
3300,106.94,209.21,135.32,210.79208764999998
3450,107.88,224.52,140.42,226.298223
3600,108.98,240.91,145.98,242.8396641
3750,110.25,258.45,151.97,260.60020785
3900,111.71,276.52,158.4,278.86417985
4050,113.36,294.96,165.07,297.44771515
4200,115.23,313.5,172.06,316.1669488
4350,117.31,331.76,179.19,334.51359467500004
4500,119.62,349.37,186.39,352.25750805
4650,122.17,366.26,193.7,369.255799975
4800,124.94,382.33,200.85,385.3655815
4950,127.93,396.76,207.87,399.85142867499997
5100,131.16,410.03,214.82,413.15698795000003
5250,134.57,422.21,221.46,425.276386675
5400,138.17,433.1,227.87,436.2037522
5550,141.97,442.34,234.05,445.4248135
5700,145.94,450.55,240.04,453.60663999999997
5850,150.08,457.78,245.83,460.81003805
6000,154.26,464.14,251.29,467.095814
6150,158.52,469.29,256.43,472.19840345
6300,162.89,473.78,261.38,476.63715064999997
6450,167.34,477.65,266.16,480.469261675
6600,171.86,480.97,270.77,483.7519426
6750,176.44,483.63,275.19,486.361439125
6900,181.07,485.93,279.48,488.6081293
7050,185.74,487.89,283.62,490.52795615
7200,190.42,489.56,287.64,492.1568627
7350,194.84,488.13,291.02,490.53493925
7500,199.22,486.32,294.06,488.61867825
7650,203.58,484.17,296.87,486.373995525
7800,207.93,481.64,299.46,483.7668069
7950,212.25,478.46,301.81,480.486967875
8100,216.54,474.73,303.92,476.6581101
8250,220.78,470.4,305.79,472.22305165
8400,224.96,465.4,307.39,467.1246106
8550,229.07,459.26,308.64,460.8437176
8700,233.1,452.2,309.57,453.64568899999995
8850,236.99,444.18,310.14,445.469691
9000,240.61,435.11,310.3,436.2548898
9150,244.14,424.38,309.96,425.334243225
9300,247.58,412.47,309.16,413.22165970000003
9450,250.89,399.37,307.88,399.922864925
9600,254.04,385.07,306.1,385.4435846
9750,257.06,369.2,303.78,369.3395396
9900,259.92,352.42,300.98,352.3460605
10050,262.61,334.9,297.72,334.605877475
10200,265.13,316.77,294.03,316.2617207
10350,267.45,298.25,289.94,297.542820575
10500,269.56,279.85,285.56,278.9581547
10650,271.45,261.76,280.92,260.691662275
10800,273.09,244.15,276.12,242.9272825
10950,274.5,227.72,271.3,226.38046375
11100,275.64,212.32,266.4,210.8682848
11250,276.51,197.97,261.57,196.45378912500001
11400,277.11,184.8,256.87,183.2000202
11550,277.43,173.39,252.32,171.7409505
11700,277.48,163.1,247.92,161.44138170000002
11850,277.26,153.92,243.74,152.257580025
12000,276.78,145.83,239.77,144.1458117
12150,276.06,139.13,236.07,137.467291575
12300,275.11,133.29,232.51,131.61621545
12450,273.95,128.18,229.09,126.52908492499999
12600,272.59,123.78,225.88,122.1424016
12750,271.05,120.23,222.89,118.629318875
12900,269.36,117.16,220.05,115.59368415
13050,267.54,114.53,217.36,112.990311225
13200,265.6,112.29,214.8,110.7740139
13350,263.57,110.51,212.39,109.02433042499999
13500,261.46,108.98,210.08,107.5229352
13650,259.29,107.67,207.86,106.244239475
13800,257.07,106.57,205.74,105.1626545
13950,254.82,105.69,203.7,104.314806875
14100,252.54,104.94,201.73,103.58974119999999
14250,250.25,104.3,199.83,102.97431515
14400,247.95,103.76,197.98,102.4553864
