Time (s),T_outer (C),T_inner (C),T_avg (C),Input Temperature (C)
0,291.77722085084145,291.77722085084145,291.77722085084145,291.77722085084145
150,291.78,294.2,291.98,294.2970313578586
300,291.78,297.65,292.39,297.8328817940934
450,291.78,301.92,293.02,302.18540858344613
600,291.78,306.82,293.85,307.15524814981706
750,291.79,314.52,295.05,315.02110290224425
900,291.81,319.83,296.33,320.31081875324116
1050,291.86,324.12,297.53,324.63591052116817
1200,291.94,329.04,298.83,329.6078930243855
1350,292.06,336.33,300.4,337.0309384820603
1500,292.23,341.07,301.94,341.7108945246269
1650,292.47,344.85,303.36,345.5362820877086
1800,292.76,349.67,304.88,350.3956221069289
1950,293.12,356.63,306.65,357.48045416169344
2100,293.55,360.04,308.34,360.7832331336247
2250,294.04,363.29,309.83,364.1416132734007
2400,294.6,370.44,311.73,371.39324883169945
2550,295.23,375.66,313.65,376.6009444555341
2700,295.92,379.67,315.51,380.591373024695
2850,296.67,383.78,317.29,384.7422623326352
3000,297.49,389.41,319.22,390.4313401728078
3150,298.36,392.4,321.04,393.3590691459791
3300,299.29,396.66,322.89,397.6862032896197
3450,300.28,402.22,324.91,403.3305081896607
3600,301.33,409.02,327.16,410.20974943203333
3750,302.42,410.11,329.07,411.1358184063461
3900,303.57,412.26,330.86,413.3077452848416
4050,304.77,412.67,332.55,413.544791543574
4200,306.02,407.93,333.61,408.6662186585976
4350,307.32,409.08,334.83,409.9475512015181
4500,308.66,409.28,336.09,410.10483659920834
4650,310.03,408.17,337.21,408.9097469030184
4800,311.42,405.46,338.07,406.13395416429836
4950,312.82,407.57,339.19,408.37503931017267
5100,314.22,407.06,340.28,407.76635500461043
5250,315.62,406.94,341.23,407.72816950269464
5400,317.0,410.81,342.58,411.68075105950817
5550,318.36,408.42,343.58,409.0881396413838
5700,319.71,408.48,344.54,409.2120607508107
5850,321.05,409.18,345.62,409.87787478471404
6000,322.37,408.25,346.54,408.91094214001924
6150,323.67,409.46,347.57,410.1830167269791
6300,324.96,409.06,348.55,409.70319423251595
6450,326.23,408.67,349.42,409.3444928173867
6600,327.48,410.27,350.46,410.9799306423482
6750,328.72,410.68,351.47,411.35402734599404
6900,329.95,411.75,352.5,412.4512509065864
7050,331.15,411.86,353.53,412.47076990659355
7200,332.34,409.08,354.22,409.61175292848384
7350,333.52,401.41,354.35,401.69540532796134
7500,334.69,396.7,354.33,397.02205598322377
7650,335.84,394.09,354.43,394.4179140429977
7800,336.97,392.39,354.62,392.7091886560096
7950,338.06,384.02,354.27,384.06906423142624
8100,339.12,379.76,353.86,379.8887985813566
8250,340.13,376.47,353.62,376.5034557046127
8400,341.09,370.3,353.06,370.24809960000664
8550,341.95,367.23,352.6,367.21706983408023
8700,342.74,359.72,351.86,359.4757966233541
8850,343.48,352.17,350.72,351.95980088796557
9000,344.15,349.78,349.97,349.6046035480519
9150,344.75,343.42,348.99,343.0893826591234
9300,345.29,341.86,348.17,341.70016254546965
9450,345.75,340.09,347.64,339.77462149320843
9600,346.14,332.1,346.5,331.6504377884571
9750,346.46,327.88,345.39,327.4810674139893
9900,346.7,320.9,344.09,320.32079171992933
10050,346.88,313.76,342.5,313.1784218224687
10200,346.98,309.64,341.1,309.0627688377988
10350,347.03,304.97,339.69,304.3569880955744
10500,347.0,301.42,338.32,300.82595520863845
10650,346.89,297.2,336.98,296.5087009604391
10800,346.71,290.23,335.3,289.44425613442473
10950,346.46,291.45,334.14,290.9133762208511
11100,346.13,289.29,333.06,288.6497251582522
11250,345.74,287.28,331.84,286.7453505512461
11400,345.28,289.73,331.11,289.29230000445114
11550,344.76,289.09,330.33,288.5876952133775
11700,344.19,288.11,329.51,287.59935645204393
11850,343.58,288.31,328.74,287.8884017912542
12000,342.93,291.35,328.32,291.0159493018119
12150,342.25,291.09,327.8,290.6769634209588
12300,341.56,290.73,327.22,290.315463945915
12450,340.85,289.84,326.6,289.38338085165265
12600,340.14,287.82,325.82,287.3326441131438
12750,339.43,291.32,325.44,291.0243994457983
12900,338.73,291.85,325.09,291.4776716889449
13050,338.02,290.77,324.53,290.3757361007385
13200,337.32,289.81,323.92,289.401867939334
13350,336.63,290.24,323.4,289.88480167396096
13500,335.95,290.13,322.9,289.76089435778556
13650,335.27,289.15,322.33,288.73190066332745
13800,334.61,286.95,321.59,286.4995752631064
13950,333.95,289.01,321.13,288.69641735838366
14100,333.3,289.24,320.71,288.88298251683705
14250,332.66,288.62,320.18,288.2633470800649
14400,332.02,288.4,319.67,288.0415873896654
